# Energy (keV) mu/rho (cm2/g)
#----------------------------
 1.067676E+00  1.7034E+02
 1.141345E+00  1.3803E+02
 1.220098E+00  1.1186E+02
 1.304285E+00  9.0673E+01
 1.394281E+00  7.3508E+01
 1.490486E+00  5.9606E+01
 1.593329E+00  4.8344E+01
 1.703269E+00  3.9224E+01
 1.820795E+00  3.1835E+01
 1.946430E+00  2.5850E+01
 2.080733E+00  2.1000E+01
 2.224304E+00  1.7072E+01
 2.377781E+00  1.3888E+01
 2.541848E+00  1.1307E+01
 2.717235E+00  9.2148E+00
 2.904724E+00  7.5187E+00
 3.105150E+00  6.1166E+00
 3.319406E+00  4.9646E+00
 3.548445E+00  4.0382E+00
 3.793288E+00  3.2930E+00
 4.055024E+00  2.6932E+00
 4.334821E+00  2.2104E+00
 4.633924E+00  1.8214E+00
 4.953664E+00  1.5078E+00
 5.295467E+00  1.2547E+00
 5.660855E+00  1.0504E+00
 6.051453E+00  8.8529E-01
 6.469004E+00  7.5169E-01
 6.915365E+00  6.4348E-01
 7.392525E+00  5.5572E-01
 7.902609E+00  4.8445E-01
 8.447890E+00  4.2649E-01
 9.030794E+00  3.7913E-01
 9.653919E+00  3.4014E-01
 1.032004E+01  3.0837E-01
 1.103212E+01  2.8242E-01
 1.179334E+01  2.6120E-01
 1.260708E+01  2.4377E-01
 1.347697E+01  2.2944E-01
 1.440688E+01  2.1761E-01
 1.540095E+01  2.0780E-01
 1.646362E+01  1.9965E-01
 1.759961E+01  1.9282E-01
 1.881398E+01  1.8709E-01
 2.011215E+01  1.8223E-01
 2.149988E+01  1.7808E-01
 2.298338E+01  1.7449E-01
 2.456923E+01  1.7138E-01
 2.626450E+01  1.6863E-01
 2.807676E+01  1.6617E-01
 3.001405E+01  1.6394E-01
 3.208502E+01  1.6187E-01
 3.429889E+01  1.5994E-01
 3.666551E+01  1.5810E-01
 3.919543E+01  1.5633E-01
 4.189992E+01  1.5461E-01
 4.479101E+01  1.5289E-01
 4.788159E+01  1.5119E-01
 5.118542E+01  1.4948E-01
 5.471721E+01  1.4775E-01
 5.849270E+01  1.4599E-01
 6.252870E+01  1.4420E-01
 6.684318E+01  1.4237E-01
 7.145536E+01  1.4050E-01
 7.638578E+01  1.3858E-01
 8.165640E+01  1.3663E-01
 8.729069E+01  1.3463E-01
 9.331374E+01  1.3258E-01
 9.975239E+01  1.3048E-01