# Energy (keV) mu/rho (cm2/g)
#----------------------------
1.067676E+00  6.6903E+03
1.141345E+00  5.6582E+03
1.220098E+00  4.7734E+03
1.304285E+00  4.0266E+03
1.394281E+00  3.3886E+03
1.490486E+00  2.8516E+03
1.593329E+00  2.3996E+03
1.703269E+00  2.0189E+03
1.820795E+00  1.6990E+03
1.946430E+00  1.4304E+03
2.080733E+00  1.2047E+03
2.224304E+00  1.0151E+03
2.377781E+00  8.5600E+02
2.541848E+00  7.2231E+02
2.717235E+00  6.0673E+02
2.904724E+00  5.0956E+02
3.105150E+00  4.2502E+02
3.319406E+00  3.5103E+02
3.548445E+00  2.9025E+02
3.793288E+00  2.4029E+02
4.055024E+00  1.9916E+02
4.334821E+00  1.6528E+02
4.633924E+00  1.3733E+02
4.953664E+00  1.1426E+02
5.295467E+00  9.5190E+01
5.660855E+00  7.9409E+01
6.051453E+00  6.6334E+01
6.408220E+00  5.6903E+01
6.469004E+00  5.5488E+01
6.506305E+00  5.4645E+01
6.532461E+00  5.4064E+01
6.571695E+00  4.5727E+02
6.669780E+00  4.3788E+02
6.915365E+00  3.9466E+02
7.392525E+00  3.3147E+02
7.902609E+00  2.7983E+02
8.447890E+00  2.3617E+02
9.030794E+00  1.9808E+02
9.653919E+00  1.6538E+02
1.032004E+01  1.3811E+02
1.103212E+01  1.1536E+02
1.179334E+01  9.6376E+01
1.260708E+01  8.0521E+01
1.347697E+01  6.7017E+01
1.440688E+01  5.5521E+01
1.540095E+01  4.5981E+01
1.646362E+01  3.8090E+01
1.759961E+01  3.1563E+01
1.881398E+01  2.6164E+01
2.011215E+01  2.1698E+01
2.149988E+01  1.8001E+01
2.298338E+01  1.4941E+01
2.456923E+01  1.2408E+01
2.626450E+01  1.0311E+01
2.807676E+01  8.5359E+00
3.001405E+01  7.0311E+00
3.208502E+01  5.7938E+00
3.429889E+01  4.7800E+00
3.666551E+01  3.9494E+00
3.919543E+01  3.2683E+00
4.189992E+01  2.7097E+00
4.479101E+01  2.2516E+00
4.788159E+01  1.8756E+00
5.118542E+01  1.5670E+00
5.471721E+01  1.3136E+00
5.849270E+01  1.1052E+00
6.252870E+01  9.3385E-01
6.684318E+01  7.9285E-01
7.145536E+01  6.7672E-01
7.638578E+01  5.8096E-01
8.165640E+01  5.0137E-01
8.729069E+01  4.3468E-01
9.331374E+01  3.7974E-01
9.975239E+01  3.3438E-01
