# Energy (keV) mu/rho (cm2/g)
#----------------------------
 1.003060E+00  9.5360E+03
 1.007092E+00  9.4386E+03
 1.013141E+00  1.0573E+04
 1.028262E+00  1.0196E+04
 1.067676E+00  9.2996E+03
 1.141345E+00  7.9192E+03
 1.220098E+00  6.7538E+03
 1.304285E+00  5.7632E+03
 1.394281E+00  4.9036E+03
 1.490486E+00  4.1573E+03
 1.593329E+00  3.5036E+03
 1.703269E+00  2.9519E+03
 1.820795E+00  2.4871E+03
 1.946430E+00  2.0960E+03
 2.080733E+00  1.7652E+03
 2.224304E+00  1.4847E+03
 2.377781E+00  1.2493E+03
 2.541848E+00  1.0519E+03
 2.717235E+00  8.8628E+02
 2.904724E+00  7.4738E+02
 3.105150E+00  6.2692E+02
 3.319406E+00  5.2336E+02
 3.548445E+00  4.3590E+02
 3.793288E+00  3.6208E+02
 4.055024E+00  3.0119E+02
 4.334821E+00  2.5093E+02
 4.633924E+00  2.0839E+02
 4.953664E+00  1.7316E+02
 5.295467E+00  1.4406E+02
 5.660855E+00  1.1998E+02
 6.051453E+00  1.0006E+02
 6.469004E+00  8.3554E+01
 6.915365E+00  6.9859E+01
 7.392525E+00  5.8485E+01
 7.902609E+00  4.9027E+01
 8.166144E+00  4.4977E+01
 8.291136E+00  4.3221E+01
 8.324467E+00  4.2769E+01
 8.374464E+00  3.3391E+02
 8.447890E+00  3.2545E+02
 8.499456E+00  3.1967E+02
 9.030794E+00  2.7180E+02
 9.653919E+00  2.2970E+02
 1.032004E+01  1.9252E+02
 1.103212E+01  1.6054E+02
 1.179334E+01  1.3407E+02
 1.260708E+01  1.1200E+02
 1.347697E+01  9.3573E+01
 1.440688E+01  7.8199E+01
 1.540095E+01  6.5367E+01
 1.646362E+01  5.4649E+01
 1.759961E+01  4.5418E+01
 1.881398E+01  3.7707E+01
 2.011215E+01  3.1316E+01
 2.149988E+01  2.6017E+01
 2.298338E+01  2.1609E+01
 2.456923E+01  1.7956E+01
 2.626450E+01  1.4927E+01
 2.807676E+01  1.2361E+01
 3.001405E+01  1.0228E+01
 3.208502E+01  8.4690E+00
 3.429889E+01  7.0190E+00
 3.666551E+01  5.8159E+00
 3.919543E+01  4.8054E+00
 4.189992E+01  3.9760E+00
 4.479101E+01  3.2952E+00
 4.788159E+01  2.7362E+00
 5.118542E+01  2.2770E+00
 5.471721E+01  1.8995E+00
 5.849270E+01  1.5892E+00
 6.252870E+01  1.3339E+00
 6.684318E+01  1.1238E+00
 7.145536E+01  9.5072E-01
 7.638578E+01  8.0808E-01
 8.165640E+01  6.8970E-01
 8.729069E+01  5.9076E-01
 9.331374E+01  5.0932E-01
 9.975239E+01  4.4215E-01
 1.066353E+02  3.8667E-01
 1.139931E+02  3.4073E-01
 1.218587E+02  3.0261E-01
 1.302669E+02  2.7088E-01
 1.392553E+02  2.4438E-01
 1.488640E+02  2.2215E-01
 1.591356E+02  2.0343E-01
 1.701159E+02  1.8758E-01
 1.818539E+02  1.7408E-01
 1.944018E+02  1.6252E-01
