# Energy (keV) mu/rho (cm2/g)
#----------------------------
 1.067676E+00  1.7266E+03
 1.141345E+00  1.4307E+03
 1.220098E+00  1.1771E+03
 1.304285E+00  9.6850E+02
 1.394281E+00  7.9688E+02
 1.490486E+00  6.5569E+02
 1.593329E+00  5.3955E+02
 1.703269E+00  4.4400E+02
 1.820795E+00  3.6539E+02
 1.946430E+00  3.0072E+02
 2.080733E+00  2.4752E+02
 2.224304E+00  2.0374E+02
 2.377781E+00  1.6773E+02
 2.541848E+00  1.3809E+02
 2.717235E+00  1.1371E+02
 2.904724E+00  9.3646E+01
 3.105150E+00  7.6739E+01
 3.319406E+00  6.2598E+01
 3.548445E+00  5.1075E+01
 3.793288E+00  4.1686E+01
 4.055024E+00  3.4035E+01
 4.334821E+00  2.7799E+01
 4.633924E+00  2.2717E+01
 4.953664E+00  1.8574E+01
 5.295467E+00  1.5197E+01
 5.660855E+00  1.2384E+01
 6.051453E+00  1.0096E+01
 6.469004E+00  8.2403E+00
 6.915365E+00  6.7348E+00
 7.392525E+00  5.5130E+00
 7.902609E+00  4.5212E+00
 8.447890E+00  3.7161E+00
 9.030794E+00  3.0584E+00
 9.653919E+00  2.5142E+00
 1.032004E+01  2.0746E+00
 1.103212E+01  1.7194E+00
 1.179334E+01  1.4320E+00
 1.260708E+01  1.1995E+00
 1.347697E+01  1.0112E+00
 1.440688E+01  8.5861E-01
 1.540095E+01  7.3485E-01
 1.646362E+01  6.3435E-01
 1.759961E+01  5.5263E-01
 1.881398E+01  4.8610E-01
 2.011215E+01  4.3181E-01
 2.149988E+01  3.8745E-01
 2.298338E+01  3.5109E-01
 2.456923E+01  3.2120E-01
 2.626450E+01  2.9654E-01
 2.807676E+01  2.7590E-01
 3.001405E+01  2.5871E-01
 3.208502E+01  2.4435E-01
 3.429889E+01  2.3229E-01
 3.666551E+01  2.2206E-01
 3.919543E+01  2.1330E-01
 4.189992E+01  2.0573E-01
 4.479101E+01  1.9910E-01
 4.788159E+01  1.9325E-01
 5.118542E+01  1.8799E-01
 5.471721E+01  1.8322E-01
 5.849270E+01  1.7883E-01
 6.252870E+01  1.7474E-01
 6.684318E+01  1.7091E-01
 7.145536E+01  1.6726E-01
 7.638578E+01  1.6376E-01
 8.165640E+01  1.6039E-01
 8.729069E+01  1.5711E-01
 9.331374E+01  1.5390E-01
 9.975239E+01  1.5076E-01
 1.066353E+02  1.4766E-01
 1.139931E+02  1.4460E-01
 1.218587E+02  1.4158E-01
 1.302669E+02  1.3859E-01
 1.392553E+02  1.3562E-01
 1.488640E+02  1.3268E-01
 1.591356E+02  1.2978E-01
 1.701159E+02  1.2690E-01
 1.818539E+02  1.2404E-01
 1.944018E+02  1.2122E-01
