# Energy (keV) mu/rho (cm2/g)
#----------------------------
 1.067676E+00  8.6022E+03
 1.074178E+00  8.4537E+03
 1.090619E+00  8.0971E+03
 1.095004E+00  8.0063E+03
 1.101580E+00  8.8120E+03
 1.118022E+00  8.5238E+03
 1.141345E+00  8.1510E+03
 1.220098E+00  6.9854E+03
 1.304285E+00  5.9610E+03
 1.394281E+00  5.0809E+03
 1.490486E+00  4.3343E+03
 1.593329E+00  3.6982E+03
 1.703269E+00  3.1222E+03
 1.820795E+00  2.6343E+03
 1.946430E+00  2.2227E+03
 2.080733E+00  1.8753E+03
 2.224304E+00  1.5811E+03
 2.377781E+00  1.3296E+03
 2.541848E+00  1.1186E+03
 2.717235E+00  9.4178E+02
 2.904724E+00  7.9366E+02
 3.105150E+00  6.6540E+02
 3.319406E+00  5.5521E+02
 3.548445E+00  4.6374E+02
 3.793288E+00  3.8722E+02
 4.055024E+00  3.2183E+02
 4.334821E+00  2.6785E+02
 4.633924E+00  2.2325E+02
 4.953664E+00  1.8575E+02
 5.295467E+00  1.5444E+02
 5.660855E+00  1.2855E+02
 6.051453E+00  1.0714E+02
 6.469004E+00  8.9404E+01
 6.915365E+00  7.4701E+01
 7.392525E+00  6.2497E+01
 7.902609E+00  5.2356E+01
 8.447890E+00  4.3919E+01
 8.799322E+00  3.9475E+01
 8.934005E+00  3.7905E+01
 8.969921E+00  3.7472E+01
 9.030794E+00  2.8468E+02
 9.158478E+00  2.7318E+02
 9.653919E+00  2.3525E+02
 1.032004E+01  1.9728E+02
 1.103212E+01  1.6628E+02
 1.179334E+01  1.4023E+02
 1.260708E+01  1.1748E+02
 1.347697E+01  9.8280E+01
 1.440688E+01  8.2115E+01
 1.540095E+01  6.8553E+01
 1.646362E+01  5.7211E+01
 1.759961E+01  4.7749E+01
 1.881398E+01  3.9716E+01
 2.011215E+01  3.2995E+01
 2.149988E+01  2.7422E+01
 2.298338E+01  2.2797E+01
 2.456923E+01  1.8952E+01
 2.626450E+01  1.5759E+01
 2.807676E+01  1.3052E+01
 3.001405E+01  1.0801E+01
 3.208502E+01  8.9450E+00
 3.429889E+01  7.4136E+00
 3.666551E+01  6.1500E+00
 3.919543E+01  5.1043E+00
 4.189992E+01  4.2217E+00
 4.479101E+01  3.4968E+00
 4.788159E+01  2.9016E+00
 5.118542E+01  2.4124E+00
 5.471721E+01  2.0104E+00
 5.849270E+01  1.6796E+00
 6.252870E+01  1.4076E+00
 6.684318E+01  1.1836E+00
 7.145536E+01  9.9910E-01
 7.638578E+01  8.4703E-01
 8.165640E+01  7.2087E-01
 8.729069E+01  6.1553E-01
 9.331374E+01  5.2879E-01
 9.975239E+01  4.5727E-01
 1.066353E+02  3.9821E-01
 1.139931E+02  3.4934E-01
 1.218587E+02  3.0882E-01
 1.302669E+02  2.7512E-01
 1.392553E+02  2.4700E-01
 1.488640E+02  2.2346E-01
 1.591356E+02  2.0368E-01
 1.701159E+02  1.8697E-01
 1.818539E+02  1.7278E-01
 1.944018E+02  1.6064E-01
